Angle,Aire
0.0,75.35084631085255
0.01,75.49802789054658
0.02,75.65152538074727
0.03,75.81146011646813
0.04,75.97818117923566
0.05,76.15214786724582
0.06,76.33578238365796
0.07,76.52949994511941
0.08,76.7333411880496
0.09,76.94736939770908
0.1,77.172848657415
0.11,77.41510841952197
0.12,77.67534804377387
0.13,77.95511080059833
0.14,78.64233617415147
0.15,82.02666750791097
0.16,92.04239494721402
0.17,104.56317485516158
0.18,117.58383936821782
0.19,130.89353710025853
0.2,144.53429072260377
0.21,158.73507355325305
0.22,173.97913903658832
0.23,190.48238988453699
0.24,208.07247956549185
0.25,227.05531001009655
0.26,247.80350594154794
0.27,270.1185762488728
0.28,293.7052476633548
0.29,318.34409467739783
0.3,343.8300963340864
0.31,369.95136594457983
0.32,396.4534668499157
0.33,423.0597282714805
0.34,449.6861426148699
0.35,476.325117883781
0.36,502.97273081459036
0.37,529.6217428419978
0.38,556.2691615525356
0.39,582.9147903163885
0.4,609.5579488240901
0.41,636.1942311216384
0.42,662.8189479888016
0.43,689.4294639443913
0.44,716.0082578489619
0.45,742.5064348580056
0.46,768.7831625285812
0.47,794.6037701119188
0.48,818.8755590163685
0.49,836.1531671465675
0.5,849.9482490264073
0.51,862.4896576156689
0.52,874.0800979611608
0.53,884.9245047809626
0.54,894.944382953104
0.55,904.0182026672338
0.56,911.9789002194548
0.57,918.6219147826203
0.58,923.6747024784341
0.59,927.0171859557178
0.6,929.093824625565
0.61,930.2471836652657
0.62,930.7947015465102
0.63,931.0823744757862
0.64,931.3192341054457
0.65,931.5366553786192
0.66,931.7354688198665
0.67,931.9187325207192
0.68,932.0921816746306
0.69,932.2561523979225
0.7,932.4105014172959
0.71,932.5551433210863
0.72,932.6902483233388
0.73,932.8184881795636
0.74,932.941081262817
0.75,933.0587366736668
0.76,933.1715540087566
0.77,933.2790049830164
0.78,933.3802971462953
0.79,933.4753697815465
0.8,933.5656404232035
0.81,933.6518082840059
0.82,933.7338733532391
0.83,933.8118917554639
0.84,933.8859572462793
0.85,933.9562395033252
0.86,934.023025742864
0.87,934.0858044142922
0.88,934.1436607410297
0.89,934.1973385107376
0.9,934.2468834748186
0.91,934.2923126590816
0.92,934.333717416841
0.93,934.3711830712331
0.94,934.4047288269302
0.95,934.4343501983047
0.96,934.4599186208845
0.97,934.4807491381804
0.98,934.4968744092001
0.99,934.5085545787813
1.0,934.5159372000995
1.01,934.5192017144747
1.02,934.5183866227638
1.03,934.5121071433243
1.04,934.499340873111
1.05,934.4799522512815
1.06,934.4533591427423
1.07,934.4178424135756
1.08,934.3742360218835
1.09,934.3228803617482
1.1,934.263848753296
1.11,934.197142079543
1.12,934.1227536026835
1.13,934.0403699066846
1.14,933.9458235248809
1.15,933.8326276771494
1.16,933.6980659413671
1.17,933.5423455159951
1.18,933.3665815211203
1.19,933.1715650959399
1.2,932.9574698179696
1.21,932.7193738096943
1.22,932.4487830819401
1.23,932.1442030397332
1.24,931.7977932269614
1.25,931.4082511161752
1.26,930.9567308223601
1.27,930.4300297078357
1.28,929.1300940496394
1.29,924.6528179508009
1.3,917.2826805624468
1.31,905.9509317574705
1.32,893.1227852617333
1.33,879.7151694797401
1.34,865.7520104633217
1.35,849.9983273721759
1.36,831.7581879459942
1.37,810.501125406588
1.38,784.3916879665895
1.39,757.7697084217951
1.4,731.1222323658969
1.41,704.4533980848789
1.42,677.7632589467069
1.43,651.0519106457291
1.44,624.3241974959952
1.45,597.5890250212218
1.46,570.8566072422462
1.47,544.1287527084929
1.48,517.4054215530317
1.49,490.6866109163004
1.5,463.9725371352489
1.51,437.26565037426656
1.52,410.57405577595006
1.53,383.9034383113111
1.54,357.258730716673
1.55,330.6476134321955
1.56,304.07182524913765
1.57,277.55250779094735
1.58,251.09849712491237
1.59,224.7132727679309
1.6,198.44343023224187
1.61,172.35458263158708
1.62,147.98525549080782
1.63,128.60334119523094
1.64,114.36099684916809
1.65,102.84597434770947
1.66,92.85559116500266
1.67,84.68436873539743
1.68,78.92671915585673
1.69,77.1974877248644
1.7,76.8328437693372
1.71,76.49397806229008
1.72,76.18078433563534
1.73,75.89314611692052
1.74,75.62868911952901
1.75,75.3819488966144
1.76,75.14864597748867
1.77,74.92829906970464
1.78,74.72090694466085
1.79,74.5268390506271
1.8,74.3473552916319
1.81,74.18153851183237
1.82,74.02841690810196
1.83,73.8879806674644
1.84,73.7597652119489
1.85,73.64135151830973
1.86,73.53242506060164
1.87,73.43298545107166
1.88,73.34301764277129
1.89,73.26223208354601
1.9,73.18902848134327
1.91,73.12302842793925
1.92,73.06426908589096
1.93,73.01291595608264
1.94,72.96902960997886
1.95,72.93292324809238
1.96,72.90312156464326
1.97,72.87905282334641
1.98,72.86067277283968
1.99,72.84778591088417
2.0,72.83892502984475
2.01,72.8336994815961
2.02,72.83222242920027
2.03,72.83451792768224
2.04,72.84057859780789
2.05,72.85015639638915
2.06,72.86307132032167
2.07,72.8793138533632
2.08,72.89869110180088
2.09,72.92028139394225
2.1,72.94317580789883
2.11,72.96660693729967
2.12,72.99000772937717
2.13,73.01337048378872
2.14,73.03654694211748
2.15,73.05929897686457
2.16,73.08160220376503
2.17,73.10329625992992
2.18,73.12431724627648
2.19,73.14463847939976
2.2,73.16433080059554
2.21,73.1834045333469
2.22,73.20176603521375
2.23,73.21935780856585
2.24,73.23593810119901
2.25,73.25085241750679
2.26,73.26391521584378
2.27,73.27498136060917
2.28,73.28402533290429
2.29,73.29118069620887
2.3,73.29670976043852
2.31,73.30054733660077
2.32,73.30268665268692
2.33,73.30307974279276
2.34,73.30160724310137
2.35,73.29831588067358
2.36,73.29307536714381
2.37,73.2858813008087
2.38,73.27691626889145
2.39,73.2663030867034
2.4,73.2540153317035
2.41,73.24005295384944
2.42,73.22442045944678
2.43,73.20688636985746
2.44,73.18720233564002
2.45,73.165481797712
2.46,73.14172487447202
2.47,73.1160594955513
2.48,73.08861747947985
2.49,73.05939917683315
2.5,73.02841755022001
2.51,72.99557064052118
2.52,72.96021085553575
2.53,72.92228835886611
2.54,72.88201210873004
2.55,72.8394128613493
2.56,72.7945960497054
2.57,72.74774626511939
2.58,72.69885822577112
2.59,72.64741031203727
2.6,72.59287932124381
2.61,72.53525732970326
2.62,72.47454425332063
2.63,72.41084611694903
2.64,72.34426541284067
2.65,72.27502388397448
2.66,72.20371137483998
2.67,72.13037139709314
2.68,72.05504556507911
2.69,71.97773386768358
2.7,71.898436262718
2.71,71.81715207401228
2.72,71.73363680113333
2.73,71.64764199946309
2.74,71.55944205993482
2.75,71.4691264480854
2.76,71.37679241707416
2.77,71.28398384041506
2.78,71.19172059978607
2.79,71.10017356361574
2.8,71.01028291946602
2.81,70.92481304769254
2.82,70.84441069107191
2.83,70.7691870532107
2.84,70.69923177658178
2.85,70.6345571516031
2.86,70.57516620252642
2.87,70.52271890921469
2.88,70.47901065560295
2.89,70.44458619882901
2.9,70.41990357045007
2.91,70.40497211159604
2.92,70.39988031241451
2.93,70.40663462793624
2.94,70.43053700854516
2.95,70.47249155817093
2.96,70.5363432177093
2.97,70.62244534091606
2.98,70.73077065610116
2.99,70.86132360754452
3.0,71.01418565282943
3.01,71.18949263819614
3.02,71.39691268631535
3.03,71.95392383001891
3.04,73.14617520905414
3.05,75.18246482462865
3.06,80.86068529384153
3.07,92.05168898263848
3.08,106.36035164215181
3.09,130.64618881426117
3.1,156.17122971106835
3.11,182.2415431496489
3.12,208.5817926529523
3.13,235.03886342170085
3.14,261.5440758053635
3.15,288.0705888524837
3.16,314.6124892746896
3.17,341.1687912176075
3.18,367.7373021990879
3.19,394.3135945725194
3.2,420.8929732794241
3.21,447.4752748598065
3.22,474.06044198358046
3.23,500.64453412024824
3.24,527.2240964194924
3.25,553.7982749488076
3.26,580.3619427235102
3.27,606.9115546350083
3.28,633.4469462527496
3.29,659.9680986715554
3.3,686.4749210837492
3.31,712.967401391921
3.32,739.4369441992601
3.33,765.6661270794483
3.34,791.3070055118146
3.35,816.1489533660082
3.36,839.4907074807578
3.37,860.1763951502087
3.38,875.4768577343395
3.39,888.9936989438494
3.4,901.3911785071678
3.41,911.3723552348216
3.42,917.3106661918912
3.43,918.2725952038181
3.44,918.5193277988274
3.45,918.7221491334341
3.46,918.903617865236
3.47,919.0669070820311
3.48,919.2120362005875
3.49,919.3394978799213
3.5,919.4557082479215
3.51,919.56319923665
3.52,919.6619622776893
3.53,919.7519408323592
3.54,919.8326087484347
3.55,919.9032295479576
3.56,919.9642343968711
3.57,920.0178951441482
3.58,920.0652731422432
3.59,920.1063682771521
3.6,920.1411818071787
3.61,920.1697777319431
3.62,920.1920239383039
3.63,920.2078563164876
3.64,920.2177512058165
3.65,920.2228277448338
3.66,920.2233350049266
3.67,920.2186810810882
3.68,920.2088090981479
3.69,920.1937190988208
3.7,920.1733814736245
3.71,920.1477733780032
3.72,920.116847960335
3.73,920.0807031869176
3.74,920.0399990824125
3.75,919.9953499471495
3.76,919.9475886964764
3.77,919.8961166148007
3.78,919.8404568075022
3.79,919.7802835246391
3.8,919.7147035311967
3.81,919.6436353349989
3.82,919.567053866665
3.83,919.4849593144661
3.84,919.397374559354
3.85,919.3049964226208
3.86,919.2083279875732
3.87,919.106701886522
3.88,918.9998753084974
3.89,918.8880734018242
3.9,918.7712519644958
3.91,918.6472210680904
3.92,918.5150407752607
3.93,918.374711611308
3.94,918.2261811715872
3.95,918.0683952556876
3.96,917.8998830957674
3.97,917.7219653318011
3.98,917.5353237341133
3.99,917.3399911456395
4.0,917.1327439509433
4.01,916.9106299111666
4.02,916.6709772801715
4.03,916.4107991640055
4.04,916.1301464672764
4.05,915.8291042205084
4.06,915.5068322259655
4.07,915.1355015255853
4.08,914.6952388721885
4.09,914.1237935464952
4.1,913.3714741594636
4.11,912.3427858428504
4.12,910.8883028762624
4.13,907.010414281715
4.14,898.5494606108479
4.15,885.4702078511933
4.16,872.2887123806827
4.17,858.9920188551379
4.18,845.4686910668136
4.19,829.1334812395586
4.2,807.3524282121585
4.21,783.8923664600209
4.22,759.8338547540362
4.23,735.3039941173549
4.24,710.4100086293605
4.25,685.2338575282394
4.26,659.8248915255475
4.27,634.2449483976421
4.28,608.5117917659858
4.29,582.6638058637329
4.3,556.7202960264802
4.31,530.692611526506
4.32,504.6125636038863
4.33,478.4874934498795
4.34,452.3227426126746
4.35,426.141516817569
4.36,399.94752142540403
4.37,373.747215848259
4.38,347.5800169557602
4.39,321.48082403276726
4.4,295.5155313432694
4.41,269.7417883405963
4.42,244.45095705873484
4.43,221.17781473045338
4.44,199.89632980182722
4.45,181.62082209907453
4.46,167.7175581168816
4.47,154.34918580785197
4.48,141.0956473580894
4.49,127.94666511800891
4.5,114.92720495478545
4.51,102.11101701528536
4.52,91.81840774696757
4.53,83.36684866184906
4.54,79.71130015295313
4.55,77.87955409813506
4.56,76.48355651496558
4.57,75.38314774228013
4.58,74.49306289779457
4.59,73.78191881407474
4.6,73.19625967290918
4.61,72.72337234818465
4.62,72.34045223789606
4.63,72.0242114508442
4.64,71.77068759011576
4.65,71.56040162010778
4.66,71.38017896365156
4.67,71.23000901785821
4.68,71.10703119783594
4.69,70.99512300212166
4.7,70.89075786117601
4.71,70.79379951525809
4.72,70.703475699749
4.73,70.61102101374495
4.74,70.51405711775972
4.75,70.4131962852161
4.76,70.3068006372025
4.77,70.1915981734338
4.78,70.06190579460727
4.79,69.91613614289862
4.8,69.7542893495853
4.81,69.5689578691306
4.82,69.34529148429903
4.83,69.08306121250334
4.84,68.7822242896113
4.85,68.44205895126271
4.86,68.06171183579286
4.87,67.63689396621464
4.88,67.1677467993377
4.89,66.65467091370547
4.9,66.09445777768377
4.91,65.48446020247205
4.92,64.82484538085681
4.93,64.10597843921497
4.94,63.12424865915759
4.95,61.99725854863716
4.96,60.87735638712522
4.97,59.764510751468755
4.98,58.65912982696458
4.99,57.562840658518446
5.0,56.47661038068466
5.01,55.40059692149722
5.02,54.33498574019105
5.03,53.279776628485976
5.04,52.23498952674455
5.05,51.199859590299695
5.06,50.174142129639584
5.07,49.160892844781394
5.08,48.16208545756342
5.09,47.178140158819424
5.1,46.20925225995911
5.11,45.2697567915568
5.12,44.368189591744795
5.13,43.504150758291985
5.14,42.67814797846189
5.15,41.892683238589996
5.16,41.15043737076034
5.17,40.45506791695183
5.18,39.80661471071017
5.19,39.20575891157675
5.2,38.6576545174617
5.21,38.16315724948163
5.22,37.721965169641535
5.23,37.386967524572235
5.24,37.35470034962136
5.25,37.37718798655443
5.26,37.39922900824895
5.27,37.42086634896243
5.28,37.44210395892507
5.29,37.462941836975226
5.3,37.48337998186567
5.31,37.5032923774831
5.32,37.522367077056686
5.33,37.54016018940983
5.34,37.55632009523036
5.35,37.57086968285403
5.36,37.58380759635225
5.37,37.59823422519446
5.38,37.97815100839642
5.39,38.859812538488754
5.4,39.934814155846325
5.41,41.11819444127241
5.42,42.391774024719716
5.43,43.73235985110861
5.44,45.012827782677526
5.45,46.21683757426777
5.46,47.391935824460965
5.47,48.550235588992344
5.48,49.69173008009022
5.49,50.81642286558984
5.5,51.923871600143315
5.51,53.01635907283304
5.52,54.099795376896104
5.53,55.17464804116152
5.54,56.24123357984209
5.55,57.29957424631713
5.56,58.34833034606822
5.57,59.38560869288545
5.58,60.411396485750814
5.59,61.4257851285399
5.6,62.43173806055591
5.61,63.4321843516512
5.62,64.42964898851768
5.63,65.4243474268835
5.64,66.41682692367648
5.65,67.40713711756904
5.66,68.39528802344964
5.67,69.38127969440627
5.68,70.36509561077726
5.69,71.34701953632812
5.7,72.33158528780827
5.71,73.32076788044567
5.72,74.31461037780593
5.73,75.31382515943528
5.74,76.0715579811541
5.75,76.30625138623057
5.76,76.28964168725773
5.77,76.16487658647985
5.78,75.95565210023184
5.79,75.66788330719929
5.8,75.39980790319107
5.81,75.22470122469105
5.82,75.11130203379305
5.83,75.02696208789644
5.84,74.97167855508326
5.85,74.94544861172811
5.86,74.94887986906278
5.87,74.98440928843674
5.88,75.06053816991921
5.89,75.18109602251954
5.9,75.80933190541438
5.91,79.33082996479115
5.92,86.73815432239248
5.93,96.94916325627499
5.94,108.54816044200389
5.95,121.8928057824932
5.96,135.4399745713081
5.97,149.02319756781068
5.98,162.63864571493284
5.99,176.28610376626656
6.0,189.96116691093783
6.01,203.65426268428584
6.02,217.36381311602028
6.03,231.09169533532904
6.04,244.84094562098932
6.05,258.61209477536
6.06,272.4021135876346
6.07,286.20571616291346
6.08,300.0223229803988
6.09,313.8481986326923
6.1,327.68255147860464
6.11,341.52616721260733
6.12,355.3880275200512
6.13,369.4480329904664
6.14,383.8315960351264
6.15,398.6066645336369
6.16,414.4304454044033
6.17,433.46687628906096
6.18,454.03848395817556
6.19,476.0251745222052
6.2,499.6438014204826
6.21,525.578208381898
6.22,551.6413003615394
6.23,576.2548790854669
6.24,599.6403463292214
6.25,621.6969924778834
6.26,640.5180542479061
6.27,654.1460256897609
6.28,667.7587778197563
6.29,681.3564854546473
6.3,694.9361336084314
6.31,708.494038141194
6.32,722.036754370976
6.33,735.5642199872071
6.34,749.0764341336975
6.35,762.5733958517882
6.36,776.0552921363642
6.37,789.5259005484478
6.38,802.9867014966043
6.39,816.4371350748389
6.4,829.8736477740334
6.41,843.2993646066683
6.42,856.7157911099996
6.43,870.1220919723421
6.44,883.51960051989
6.45,896.9099508137409
6.46,910.2931032292796
6.47,923.5257400519974
6.48,936.4507945110529
6.49,949.0401519310537
6.5,961.2402246531663
6.51,972.6459776736054
6.52,983.198805218381
6.53,991.8902688119971
6.54,999.3309162853836
6.55,1005.3620620118159
6.56,1009.8384775696331
6.57,1012.5062159928677
6.58,1012.9141201126893
6.59,1012.984104501716
6.6,1013.0286174288802
6.61,1013.0491870887765
6.62,1013.0458889591479
6.63,1013.0189949240244
6.64,1012.9707668749494
6.65,1012.9074990278992
6.66,1012.829486161255
6.67,1012.7370568515165
6.68,1012.6326465438004
6.69,1012.5167814645923
6.7,1012.3894619461571
6.71,1012.2507047078044
6.72,1012.1001502805385
6.73,1011.9371522438048
6.74,1011.76163880239
6.75,1011.5695303193412
6.76,1011.359799420712
6.77,1011.1327530714127
6.78,1010.8900362347098
6.79,1010.6319203899677
6.8,1010.3588084856568
6.81,1010.0687214484835
6.82,1009.7617042689593
6.83,1009.4392336476712
6.84,1009.1031945221473
6.85,1008.7539759463767
6.86,1008.3916268868995
6.87,1008.0157486333502
6.88,1007.6339205116772
6.89,1007.2599751768173
6.9,1006.8938734257346
6.91,1006.535462115927
6.92,1006.1815132596828
6.93,1005.8144893663898
6.94,1005.4265348644665
6.95,1004.9583422740625
6.96,1004.3270183646849
6.97,1003.4244296782382
6.98,1002.1299314827091
6.99,1000.26801968783
7.0,996.1665869198196
7.01,989.2971899956166
7.02,980.8896991203862
7.03,971.2714157619215
7.04,961.0236589264498
7.05,950.117372975827
7.06,938.4267648595073
7.07,925.9196006392051
7.08,913.3043519786424
7.09,900.5370961722866
7.1,887.6135429916955
7.11,874.5852112292544
7.12,861.4600694693241
7.13,848.2376163192542
7.14,834.86778576153
7.15,821.3160893581816
7.16,807.5848583762818
7.17,793.6521156298709
7.18,779.4304648800629
7.19,764.7968507983068
7.2,749.5132536798234
7.21,732.0673053059584
7.22,713.460494339677
7.23,694.4844401600138
7.24,674.4479057885347
7.25,651.7391008081249
7.26,628.1094521289601
7.27,603.9468801436989
7.28,579.4007906436594
7.29,554.692458699981
7.3,529.9909064190739
7.31,505.44807683677556
7.32,481.22971803083476
7.33,457.76767205247904
7.34,436.13580928281976
7.35,415.77989844845695
7.36,396.95269755964665
7.37,379.76593100600223
7.38,365.1781274336006
7.39,351.01186547101975
7.4,336.9612919978554
7.41,323.011334750846
7.42,309.1182926267357
7.43,295.3264191675444
7.44,281.6417597823281
7.45,268.0642878195934
7.46,254.59378616125738
7.47,241.2187595569741
7.48,227.9683156808854
7.49,214.86571202725034
7.5,201.91043467905757
7.51,189.13075499641738
7.52,176.6018367391648
7.53,164.38703316126538
7.54,152.55591692538013
7.55,141.2099495800031
7.56,130.5356031432527
7.57,121.0849659223858
7.58,112.81347484316329
7.59,104.88380864266571
7.6,97.3020513674359
7.61,91.65949590186423
7.62,88.15616938316678
7.63,85.51190804819383
7.64,83.48599971856358
7.65,82.0537294788988
7.66,81.07441118885085
7.67,80.4285165065031
7.68,80.0327321688392
7.69,79.81945253129173
7.7,79.6995366771936
7.71,79.60160715393579
7.72,79.51881530114932
7.73,79.45114000514954
7.74,79.39842432943455
7.75,79.36032582199184
7.76,79.33566199301089
7.77,79.31404004633724
7.78,79.29273929686032
7.79,79.27177620960649
7.8,79.25149825181649
7.81,79.2321588171486
7.82,79.21363754849055
7.83,79.19559537578468
7.84,79.17795276070564
7.85,79.16074233015449
7.86,79.14408202783862
7.87,79.12687628267814
7.88,79.1067176522425
7.89,79.08348259215515
7.9,79.05711806636624
7.91,79.02856271327643
7.92,78.99878183974798
7.93,78.96762212886145
7.94,78.93509560615844
7.95,78.90131531445122
7.96,78.866613902813
7.97,78.8314730877435
7.98,78.79572844702354
7.99,78.759339265386
8.0,78.7223055588219
8.01,78.68464916518529
8.02,78.64666202784468
8.03,78.60862358799503
8.04,78.57079975527475
8.05,78.53340363073372
8.06,78.49627857400687
8.07,78.45928829179158
8.08,78.42243226329553
8.09,78.38571049726765
8.1,78.34919396913052
8.11,78.31313762131978
8.12,78.27756711584435
8.13,78.24251413872932
8.14,78.20801941686388
8.15,78.17388689768381
8.16,78.1400298744224
8.17,78.10644611491102
8.18,78.07320822198443
8.19,78.04052330394212
8.2,78.00854414039877
8.21,77.97737681957226
8.22,77.94711563325812
8.23,77.91776747681288
8.24,77.88910084144713
8.25,77.86096057771137
8.26,77.83334669443417
8.27,77.80625920056251
8.28,77.77972254152829
8.29,77.75405617489287
8.3,77.72957684673048
8.31,77.706352502924
8.32,77.68429980654797
8.33,77.6633614670961
8.34,77.64344307984933
8.35,77.62445989900209
8.36,77.60642665557134
8.37,77.58950425366362
8.38,77.57374192747224
8.39,77.55941494014047
8.4,77.54685886192439
8.41,77.53595856179751
8.42,77.52669267047864
8.43,77.51905154165891
8.44,77.51297880383386
8.45,77.508347401306
8.46,77.5051549828083
8.47,77.50378146101438
8.48,77.50450269937106
8.49,77.50713481295226
8.5,77.51175983956442
8.51,77.51838693164515
8.52,77.52697658325458
8.53,77.53779894974586
8.54,77.55142042418541
8.55,77.5678415059112
8.56,77.58706222083569
8.57,77.60902107590836
8.58,77.63477199472068
8.59,77.66481464736408
8.6,77.69911154989444
8.61,77.7379609481163
8.62,77.78299876665353
8.63,77.83444198010005
8.64,77.89299728999252
8.65,77.96082973210119
8.66,78.03831177167464
8.67,78.1305483790694
8.68,78.23949495614829
8.69,78.38028084988892
8.7,80.52160111904732
