Angle,Aire
0.0,880.274733688984
0.01,877.3937406578019
0.02,874.4215600450228
0.03,871.3615916301256
0.04,868.2178980542444
0.05,864.9918754286442
0.06,861.6872883795303
0.07,858.3048982767716
0.08,854.8509406253686
0.09,851.3302750337215
0.1,847.7456053420118
0.11,844.1032670095916
0.12,840.4255436118794
0.13,836.7274750620954
0.14,833.0134288352348
0.15,829.2853426463549
0.16,825.546643298826
0.17,821.7987091500934
0.18,818.0423981792054
0.19,814.2805453615925
0.2,810.5168339033245
0.21,806.7510997153872
0.22,802.9849336918737
0.23,799.2199365545324
0.24,795.4561195805734
0.25,791.6939757383603
0.26,787.9348489735302
0.27,784.1792475067767
0.28,780.427170016443
0.29,776.6788710126914
0.3,772.9350692339798
0.31,769.1964375503348
0.32,765.4632588023018
0.33,761.7355831360151
0.34,758.0134468871004
0.35,754.2976790765022
0.36,750.5886678417962
0.37,746.8862812556433
0.38,743.1905162308842
0.39,739.5013807939222
0.4,735.8196229248567
0.41,732.1456194761283
0.42,728.4793089971214
0.43,724.8205674573277
0.44,721.1695761465226
0.45,717.5263372445564
0.46,713.8912923049245
0.47,710.2645685910902
0.48,706.6461790852716
0.49,703.0361986156936
0.5,699.4346340222445
0.51,695.8414454923287
0.52,692.2560992003803
0.53,688.6786966417772
0.54,685.1091880886052
0.55,681.5474729668409
0.56,677.9935462475701
0.57,674.4474350127741
0.58,670.9093079506308
0.59,667.3792211897105
0.6,663.8540935981235
0.61,660.3321233462475
0.62,656.8126898201314
0.63,653.2879433858269
0.64,649.7556907033946
0.65,646.2158940358072
0.66,642.6688021429286
0.67,639.1145597745921
0.68,635.5533764591129
0.69,631.9856128677984
0.7,628.411306436119
0.71,624.8302827286263
0.72,621.2425956994715
0.73,617.6484332192173
0.74,614.047858323693
0.75,610.4409554598217
0.76,606.8276908933259
0.77,603.2082497377694
0.78,599.5826846839431
0.79,595.9509752386418
0.8,592.3131229845729
0.81,588.669174210568
0.82,585.0191532584473
0.83,581.3630723060102
0.84,577.7009429981279
0.85,574.032821546829
0.86,570.358641422717
0.87,566.6784620480232
0.88,562.992313919162
0.89,559.3002123049517
0.9,555.6021592089747
0.91,551.897990501453
0.92,548.1873579175659
0.93,544.4699841769227
0.94,540.7458621886874
0.95,537.0144215145571
0.96,533.2754507286545
0.97,529.5288934934631
0.98,525.7744607234101
0.99,522.0127958953695
1.0,518.2456241985915
1.01,514.4729457253718
1.02,510.6946856321457
1.03,506.91081663143734
1.04,503.12110310070005
1.05,499.32523265286125
1.06,495.5233362892647
1.07,491.7154500607214
1.08,487.9014644123103
1.09,484.08098619120693
1.1,480.25681304729477
1.11,476.430377682643
1.12,472.6016386554681
1.13,468.7707998651752
1.14,464.940852820416
1.15,461.1121683388217
1.16,457.28480426318566
1.17,453.45882886499226
1.18,449.6333036998841
1.19,445.80798637021724
1.2,441.98290326084674
1.21,438.1580585682676
1.22,434.33361445559524
1.23,430.5096572174465
1.24,426.686264935526
1.25,422.86352573857073
1.26,419.04142630039837
1.27,415.2201252895381
1.28,411.39970942530164
1.29,407.58016531670853
1.3,403.7615742444446
1.31,399.9441077296623
1.32,396.12801242765875
1.33,392.3134157242448
1.34,388.50021493705714
1.35,384.6884280854879
1.36,380.87817347159796
1.37,377.0699584869351
1.38,373.2638875523922
1.39,369.4599428062317
1.4,365.6580958904332
1.41,361.8586131508364
1.42,358.0619126488631
1.43,354.2681359726027
1.44,350.4772447996086
1.45,346.6894669637624
1.46,342.90512478308995
1.47,339.12446449455985
1.48,335.34768813641364
1.49,331.57475270882486
1.5,327.8056168522189
1.51,324.040203296281
1.52,320.27876306479027
1.53,316.5200918186284
1.54,312.76387045075757
1.55,309.0101000477337
1.56,305.2590718619729
1.57,301.5108838001874
1.58,297.7654998768807
1.59,294.0229992064077
1.6,290.28387112352436
1.61,286.54830148816285
1.62,282.81624687217686
1.63,279.0878049723779
1.64,275.3635085457006
1.65,271.6433161566857
1.66,267.92726713015253
1.67,264.21713050282386
1.68,260.5140870414662
1.69,256.81759097356024
1.7,253.1257474293868
1.71,249.43864491355353
1.72,245.7562888453783
1.73,242.07921970097877
1.74,238.40801941293586
1.75,234.7426653218684
1.76,231.08336667441623
1.77,227.4307425216449
1.78,223.78484014408778
1.79,220.14618121522034
1.8,216.51519619089754
1.81,212.89189427151848
1.82,209.2768412608096
1.83,205.6702643972746
1.84,202.0725917877398
1.85,198.48458288375315
1.86,194.90623437558529
1.87,191.33811671945847
1.88,187.78060354657097
1.89,184.2363859874667
1.9,180.70591261450656
1.91,177.19031266454303
1.92,173.7028870544539
1.93,170.25882590713093
1.94,166.8604458975082
1.95,163.51766983374378
1.96,160.23356807093734
1.97,157.0137994197878
1.98,153.85839430299615
1.99,150.7692314145763
2.0,147.75224395443945
2.01,144.81239162124527
2.02,141.94920076752715
2.03,139.16262147032901
2.04,136.45599728835438
2.05,133.83367475956527
2.06,131.29739872805482
2.07,128.84712997759897
2.08,126.48327226139675
2.09,124.21021524575605
2.1,122.02848889841334
2.11,119.9380704793513
2.12,117.93877899668806
2.13,116.03256564725419
2.14,114.22249026175383
2.15,112.50856047753199
2.16,110.8903083724902
2.17,109.3670177330613
2.18,107.93835925369152
2.19,106.60455292431266
2.2,105.36678084741263
2.21,104.2252924364942
2.22,103.18010634269238
2.23,102.22823580875549
2.24,101.35103200740292
2.25,100.54272857390578
2.26,99.80015276859622
2.27,99.11437400309099
2.28,98.48083643405145
2.29,97.89922079229851
2.3,97.37052189451411
2.31,96.88970124996118
2.32,96.44968600035683
2.33,96.05020704740683
2.34,95.69140761276412
2.35,95.37005172074818
2.36,95.08170573537055
2.37,94.8251980494081
2.38,94.59991884012673
2.39,94.40242317213108
2.4,94.22887730090817
2.41,94.07921982500247
2.42,93.95342791527098
2.43,93.85015706550342
2.44,93.76461712248728
2.45,93.69539582198632
2.46,93.6433618453296
2.47,93.60943008793966
2.48,93.59249802245323
2.49,93.58921337424454
2.5,93.59934412399136
2.51,93.62289092022108
2.52,93.65977254642725
2.53,93.710020744903
2.54,93.77411753221189
2.55,93.85156770693206
2.56,93.94319699331237
2.57,94.04902118345127
2.58,94.16904422430552
2.59,94.30589295174461
2.6,94.46267594161152
2.61,94.63817833417366
2.62,94.83564899293098
2.63,95.06645484832151
2.64,95.34267503083299
2.65,95.68137551275032
2.66,96.16334678035597
2.67,96.87313841556293
2.68,97.86384738309395
2.69,99.1682865539512
2.7,100.84875518086713
2.71,103.04789611294389
2.72,105.90936443129057
2.73,109.53838953592604
2.74,113.99928873069763
2.75,119.3900482264114
2.76,125.66297986845922
2.77,132.63465517790576
2.78,140.329924517565
2.79,148.77710646283603
2.8,158.0656133718363
2.81,168.24338344779983
2.82,179.33854887087773
2.83,191.3789674862136
2.84,204.39534092453465
2.85,218.45459413200672
2.86,233.4876815256978
2.87,249.45883032941373
2.88,266.3824830172576
2.89,284.2293546238979
2.9,302.92988524450783
2.91,322.5596297515763
2.92,343.88062573260686
2.93,366.67196849932776
2.94,390.3262616290461
2.95,414.60359842111825
2.96,439.32823334405373
2.97,464.30382280853735
2.98,489.35163915656597
2.99,514.3543949953697
3.0,539.211790172132
3.01,563.8523664346543
3.02,588.1995914098916
3.03,612.2015281450327
3.04,635.8142091894882
3.05,658.9417368044
3.06,681.5264810713173
3.07,703.509352823129
3.08,724.8264410114624
3.09,745.4438595016455
3.1,765.2640804427863
3.11,784.1789833723014
3.12,802.1506189116956
3.13,819.1977172497907
3.14,835.2841362685476
3.15,850.365955168918
3.16,864.2240461670933
3.17,876.7073273351726
3.18,886.366652722071
3.19,893.0516639121576
3.2,898.8233205150455
3.21,903.7953551561899
3.22,908.0491995818323
3.23,911.647054807497
3.24,914.6448346880362
3.25,917.0777213625391
3.26,918.9824103116123
3.27,920.484653903296
3.28,921.7085336373318
3.29,922.7118522663993
3.3,923.5171149355629
3.31,924.1618862479478
3.32,924.6669280482236
3.33,925.0404782213251
3.34,925.3010746504306
3.35,925.4688058038356
3.36,925.5627056677805
3.37,925.5932037461057
3.38,925.5648339687056
3.39,925.4751637601224
3.4,925.3304786392573
3.41,925.1321845919472
3.42,924.8837114011088
3.43,924.5824691093289
3.44,924.2248177157475
3.45,923.8112252707315
3.46,923.3415573169665
3.47,922.8114377703663
3.48,922.214209428806
3.49,921.5462886384543
3.5,920.8104530840159
3.51,920.0077646968743
3.52,919.13197400519
3.53,918.1764133684811
3.54,917.1407607735297
3.55,916.0247658207088
3.56,914.8252400357387
3.57,913.5359143645014
3.58,912.1577154615043
3.59,910.6911507021392
3.6,909.1351085447595
3.61,907.4837762152679
3.62,905.7356598982883
3.63,903.8907736988566
3.64,901.9511631606056
3.65,899.9169083618385
3.66,897.7844471389085
3.67,895.5538436224178
3.68,893.2250884220678
3.69,890.7988117814847
3.7,888.2805029777624
3.71,885.6690987311011
3.72,882.9635028743447
3.73,880.1637204188359
3.74,877.2707517013007
3.75,874.2938824439117
3.76,871.233445885241
3.77,868.086630908718
3.78,864.8535586478474
3.79,861.5400671885004
3.8,858.156005454142
3.81,854.7018049670885
3.82,851.1764204371943
3.83,847.5801629827525
3.84,843.9249160977078
3.85,840.2136968059012
3.86,836.4466642545116
3.87,832.625044564358
3.88,828.758002509973
3.89,824.8545571141548
3.9,820.917035603072
3.91,816.946075237066
3.92,812.9439691221548
3.93,808.9218384560915
3.94,804.8838138082756
3.95,800.8303444337029
3.96,796.7616073006536
3.97,792.6837182387786
3.98,788.6031188665678
3.99,784.5199509761045
4.0,780.4342053714206
4.01,776.3464224334948
4.02,772.2622591287204
4.03,768.1852497128028
4.04,764.115468410763
4.05,760.0529042035936
4.06,755.998116573797
4.07,751.9543776381604
4.08,747.9233918185987
4.09,743.9056259324731
4.1,739.9009123351874
4.11,735.9092884394441
4.12,731.9324654351191
4.13,727.9715646558838
4.14,724.0265271078264
4.15,720.0973589084622
4.16,716.1840926696033
4.17,712.2868999849669
4.18,708.4058609403999
4.19,704.5407444469396
4.2,700.6912023949238
4.21,696.8571692296724
4.22,693.0386448656902
4.23,689.2353447390586
4.24,685.4464190150619
4.25,681.6715466856089
4.26,677.9105037781331
4.27,674.1632773492354
4.28,670.4298314331955
4.29,666.7100050569205
4.3,663.0037101783611
4.31,659.3110581283046
4.32,655.6320106096736
4.33,651.9662706168576
4.34,648.3133008647504
4.35,644.6684683759502
4.36,641.0305590416262
4.37,637.3993722623516
4.38,633.7748821661669
4.39,630.1493120144173
4.4,626.5169608010204
4.41,622.877712523153
4.42,619.2316571086952
4.43,615.5788865462364
4.44,611.9194328594411
4.45,608.2532814830483
4.46,604.5803725048328
4.47,600.9006294594964
4.48,597.2140334019442
4.49,593.5206283483351
4.5,589.8204955985947
4.51,586.1135788836941
4.52,582.399783513667
4.53,578.6790882018786
4.54,574.9515855305406
4.55,571.2172944669009
4.56,567.4760139862889
4.57,563.727720818172
4.58,559.9723877757999
4.59,556.2100194123944
4.6,552.4404458923137
4.61,548.6634891541514
4.62,544.87915831558
4.63,541.087462856776
4.64,537.2883463649905
4.65,533.4817067951298
4.66,529.6673865269524
4.67,525.8453327886288
4.68,522.0155094950175
4.69,518.1778539372514
4.7,514.3323326648922
4.71,510.4788462396058
4.72,506.61754541120524
4.73,502.7502799526284
4.74,498.8775309593722
4.75,494.9992789124118
4.76,491.1154311045957
4.77,487.2259244361869
4.78,483.3307614247873
4.79,479.4326155334622
4.8,475.53355079262326
4.81,471.63355205177265
4.82,467.7326444888791
4.83,463.83082323539134
4.84,459.92811497216087
4.85,456.02447395406574
4.86,452.11984943957
4.87,448.21605064382265
4.88,444.31508710258623
4.89,440.4161736337732
4.9,436.5193095091932
4.91,432.62449277701745
4.92,428.73169826736506
4.93,424.8408852383101
4.94,420.9520717847824
4.95,417.0653153714607
4.96,413.1806261027586
4.97,409.2979919605809
4.98,405.4174165035355
4.99,401.5388901635258
5.0,397.66240903308056
5.01,393.7879712419386
5.02,389.91560565317616
5.03,386.045306934136
5.04,382.17707295737574
5.05,378.31090463602516
5.06,374.44680838383454
5.07,370.58477527367626
5.08,366.72480675752183
5.09,362.866901286007
5.1,359.01105024587434
5.11,355.15727391539366
5.12,351.3055698230853
5.13,347.45590881262547
5.14,343.60828393159545
5.15,339.7627240258473
5.16,335.91921554072445
5.17,332.0777483024022
5.18,328.23829338355984
5.19,324.4008314375852
5.2,320.5653605152194
5.21,316.73191121800795
5.22,312.90048817041003
5.23,309.0710542616278
5.24,305.24367916622623
5.25,301.41886226850534
5.26,297.59598319164803
5.27,293.77386108486115
5.28,289.95249910765386
5.29,286.1320168268539
5.3,282.31384787623006
5.31,278.49843623631074
5.32,274.6857650666329
5.33,270.87578386365794
5.34,267.0683067797487
5.35,263.2612484403865
5.36,259.45537247100805
5.37,255.65080093589543
5.38,251.84751819029685
5.39,248.04549610432238
5.4,244.24500220090877
5.41,240.44879430455183
5.42,236.65804000294494
5.43,232.8727328220167
5.44,229.09287542364112
5.45,225.31845406955603
5.46,221.54993538698486
5.47,217.788865022042
5.48,214.03541997683996
5.49,210.28961135842692
5.5,206.55145238763203
5.51,202.82140029758168
5.52,199.10127211159542
5.53,195.39151378538983
5.54,191.6922316744597
5.55,188.00343811685448
5.56,184.3264909323991
5.57,180.66312093182228
5.58,177.0431172528883
5.59,173.48959762329676
5.6,170.00393947365828
5.61,166.58878313489808
5.62,163.24414901985207
5.63,159.9701338105848
5.64,156.77148219319574
5.65,153.6510335914732
5.66,150.6108982632823
5.67,147.6617043901768
5.68,144.80483187826871
5.69,142.04177379625386
5.7,139.37813841362123
5.71,136.8143668646734
5.72,134.350364517321
5.73,131.9861405564195
5.74,129.7216758170039
5.75,127.55832092149647
5.76,125.49801712268945
5.77,123.54070493124904
5.78,121.68630327577458
5.79,119.93474634075527
5.8,118.28601655350181
5.81,116.7387053839817
5.82,115.29387053995151
5.83,113.9532444028832
5.84,112.71678662903439
5.85,111.58498815928311
5.86,110.55696060722292
5.87,109.63147479515463
5.88,108.8084483039759
5.89,108.08595257296591
5.9,107.428873911858
5.91,106.82220144041791
5.92,106.26512808843998
5.93,105.75766933785236
5.94,105.29978289600095
5.95,104.88910003771933
5.96,104.52188025888871
5.97,104.19798610241536
5.98,103.9184420230891
5.99,103.67897301801295
6.0,103.47888476772151
6.01,103.31425867192783
6.02,103.17546716388013
6.03,103.06206470149854
6.04,102.97091693770206
6.05,102.89623273682587
6.06,102.84073685762374
6.07,102.80489626739339
6.08,102.7887240525334
6.09,102.79221559921812
6.1,102.81251032425739
6.11,102.84711967475158
6.12,102.89607875305664
6.13,102.96097603060925
6.14,103.04473534348931
6.15,103.14755328705776
6.16,103.26938778041587
6.17,103.4079799648675
6.18,103.56208496634603
6.19,103.73182179491899
6.2,103.92066146044671
6.21,104.13168007212599
6.22,104.36501933979606
6.23,104.62066783293425
6.24,104.89821410329166
6.25,105.19761951719164
6.26,105.52797576208847
6.27,105.89131639195193
6.28,106.2874281127006
6.29,106.72574795542015
6.3,107.24479340683295
6.31,107.96797071621744
6.32,109.13332525404368
6.33,110.86686401376514
6.34,113.23755972304386
6.35,116.29852118042061
6.36,120.21105730220309
6.37,125.24589327079497
6.38,131.3878574642061
6.39,138.6055842370101
6.4,146.9048351803269
6.41,156.256761835327
6.42,166.3894290511438
6.43,177.1925387853692
6.44,188.63371659805938
6.45,200.69983314135342
6.46,213.37658875121673
6.47,226.6592679681799
6.48,240.55677592059823
6.49,255.07841274519095
6.5,270.23460252845103
6.51,286.058199209443
6.52,302.71173264493126
6.53,320.4537066766906
6.54,339.58815500126985
6.55,359.9519367947724
6.56,381.18463566940807
6.57,403.2109622670725
6.58,425.9561429083758
6.59,449.347300414135
6.6,473.299682293831
6.61,497.69302069013577
6.62,522.3719154344179
6.63,547.1474028491477
6.64,571.8358482699309
6.65,596.338523386242
6.66,620.5117701147392
6.67,644.0990980384081
6.68,666.9204560767755
6.69,688.8621503150091
6.7,709.8160704869543
6.71,729.7207081021279
6.72,748.4898561436448
6.73,766.1751895761524
6.74,782.8506099508994
6.75,798.5683520860305
6.76,813.382221815374
6.77,827.314226050845
6.78,840.0510207693432
6.79,850.8791758083197
6.8,860.5895237971985
6.81,869.5744153605783
6.82,877.8413509986425
6.83,885.3974644034163
6.84,892.2547104010024
6.85,898.4273556668526
6.86,903.9313741865443
6.87,908.7855919640928
6.88,913.0104543825096
6.89,916.6323962279005
6.9,919.6847560442477
6.91,922.2025738821569
6.92,924.2401687183396
6.93,925.7988128388646
6.94,926.990126242268
6.95,927.8653292185787
6.96,928.5398075264756
6.97,929.0639791761514
6.98,929.4753332935171
6.99,929.8228314506522
7.0,930.1258722202998
7.01,930.3823527858958
7.02,930.5838869864828
7.03,930.7207910910297
7.04,930.7954252059051
7.05,930.8084714153289
7.06,930.7539226305025
7.07,930.6306113852517
7.08,930.432843976417
7.09,930.1546471307015
7.1,929.7944586497224
7.11,929.3503479301571
7.12,928.8185320509301
7.13,928.1897243141651
7.14,927.4657192583821
7.15,926.6433541012735
7.16,925.7203157157885
7.17,924.6841452924712
7.18,923.531064788915
7.19,922.2598425990896
7.2,920.8749819729121
7.21,919.3777852004212
7.22,917.7672725341055
7.23,916.0442843596458
7.24,914.2089134193876
7.25,912.2623337307007
7.26,910.2015097964323
7.27,908.0262290329284
7.28,905.7395493927264
7.29,903.3464579143413
7.3,900.8469184084619
7.31,898.2403767630963
7.32,895.5269064881132
7.33,892.7078286317192
7.34,889.7914840208992
7.35,886.7812525668778
7.36,883.6747568246819
7.37,880.4720289933643
7.38,877.1777507621774
7.39,873.7972060417018
7.4,870.3379970356731
7.41,866.8000294380172
7.42,863.183617205144
7.43,859.4954753974716
7.44,855.7474842886164
7.45,851.9422673878407
7.46,848.0799349832856
7.47,844.1653997717292
7.48,840.2121854554708
7.49,836.2242601618262
7.5,832.2018685143406
7.51,828.1474326097348
7.52,824.0722952249147
7.53,819.9823812700166
7.54,815.8769207198283
7.55,811.7592765493744
7.56,807.6306976678976
7.57,803.496633745808
7.58,799.3632611536556
7.59,795.2319430352611
7.6,791.1026772160251
7.61,786.976555880515
7.62,782.8570262084634
7.63,778.7443832914981
7.64,774.6387694402598
7.65,770.5403903664865
7.66,766.4499196589016
7.67,762.3704934094899
7.68,758.3023519810489
7.69,754.2454720855229
7.7,750.1998926835768
7.71,746.1656604439343
7.72,742.1443104029413
7.73,738.137021654762
7.74,734.1437874508285
7.75,730.1645869338657
7.76,726.1994836684873
7.77,722.2487298759371
7.78,718.3123755077168
7.79,714.3902459757961
7.8,710.482224937915
7.81,706.5882268417048
7.82,702.7081593975214
7.83,698.8420376789262
7.84,694.9898198692474
7.85,691.15134432164
7.86,687.3264356819702
7.87,683.514979277248
7.88,679.716180688233
7.89,675.9298637655331
7.9,672.1560016241054
7.91,668.3945085816837
7.92,664.6452622352616
7.93,660.9082067490941
7.94,657.1833440615196
7.95,653.4706637262747
7.96,649.7701080275925
7.97,646.0816633150105
7.98,642.405279899562
7.99,638.7409235581373
8.0,635.0861343797021
8.01,631.4368822437735
8.02,627.7931198896919
8.03,624.1547547784512
8.04,620.5196028454944
8.05,616.8776245056429
8.06,613.2276068381833
8.07,609.5695667916317
8.08,605.9034384128058
8.09,602.2291887929297
8.1,598.5468632325143
8.11,594.8565618865864
8.12,591.1583655705723
8.13,587.4522719961427
8.14,583.7382949805022
8.15,580.0164450244883
8.16,576.2866959511354
8.17,572.549112395998
8.18,568.8037720770462
8.19,565.050743196123
8.2,561.2900046014898
8.21,557.5215257310417
8.22,553.7453381026792
8.23,549.9614321054888
8.24,546.1697859339889
8.25,542.3703984658115
8.26,538.5633481862542
8.27,534.7486741264188
8.28,530.9264102334814
8.29,527.0965004737651
8.3,523.2589075276014
8.31,519.4135918689027
8.32,515.5605935454579
8.33,511.7000161914755
8.34,507.83192885342163
8.35,503.9563722954369
8.36,500.0733433329514
8.37,496.18284242342185
8.38,492.28686420825596
8.39,488.3862203130421
8.4,484.480959355753
8.41,480.5710968047958
8.42,476.656648318194
8.43,472.73868907206975
8.44,468.82058689596687
8.45,464.90268688099496
8.46,460.98501171659643
8.47,457.06755667960584
8.48,453.15024113756687
8.49,449.23304072176944
8.5,445.3160533310988
8.51,441.3993950997666
8.52,437.4835144255593
8.53,433.5708455315164
8.54,429.66163936735484
8.55,425.75591360518166
8.56,421.8537371985073
8.57,417.9552639752099
8.58,414.0605274335271
8.59,410.1694175222045
8.6,406.2820364387122
8.61,402.39855170869146
8.62,398.5190442546535
8.63,394.64365243138843
8.64,390.77236930365336
8.65,386.9050789400815
