Angle,Aire
0.0,3.0791882144110665
0.01,4.458351350583736
0.02,6.031896687217457
0.03,7.779443102478092
0.04,9.67608134953625
0.05,11.718290977968662
0.06,13.904553982336429
0.07,16.232606284211567
0.08,18.701624446213795
0.09,21.310053163753718
0.1,24.05727831559657
0.11,26.94250365661913
0.12,29.964993963556978
0.13,33.12437036768453
0.14,36.4202519426769
0.15,39.851990566833344
0.16,43.4196399485593
0.17,47.1229383855184
0.18,50.96137999976051
0.19,54.93512248128816
0.2,59.04420268069549
0.21,63.288284995737406
0.22,67.66761037067464
0.23,72.2044942746567
0.24,76.96967734625912
0.25,81.9691161622469
0.26,87.203560599275
0.27,92.67366070841992
0.28,98.37987128989172
0.29,104.32288523187229
0.3,110.50341244192862
0.31,116.92207960476998
0.32,123.57937701385312
0.33,130.45746893039572
0.34,137.38491095460552
0.35,144.0105148275702
0.36,150.51390939857498
0.37,156.9476755468649
0.38,163.33692097443898
0.39,169.69525849844155
0.4,176.03149713537837
0.41,182.35130182780918
0.42,188.65900196014397
0.43,194.95833191546168
0.44,201.25164564311774
0.45,207.54132259067308
0.46,213.8287612429042
0.47,220.11557807068624
0.48,226.402536880286
0.49,232.689806025027
0.5,238.9797666209747
0.51,245.27113340599098
0.52,251.56331375091548
0.53,257.8555861413454
0.54,264.14656183811115
0.55,270.43540972406703
0.56,276.7207350983573
0.57,283.00069770014517
0.58,289.2743362652993
0.59,295.5401340470734
0.6,301.79629746844887
0.61,308.04151743956396
0.62,314.2741694581267
0.63,320.4921267594776
0.64,326.6934081451728
0.65,332.8761188876428
0.66,339.0378078801016
0.67,345.1756681150472
0.68,351.2865431236206
0.69,357.3669137314385
0.7,363.41229970565576
0.71,369.4168360310109
0.72,375.3721056350877
0.73,381.26639794608457
0.74,387.0773138100999
0.75,392.76639532824345
0.76,398.31525570637746
0.77,403.7177502649274
0.78,408.97368095991084
0.79,414.078985849921
0.8,419.02569858852206
0.81,423.81322324903
0.82,428.4411994003452
0.83,432.9068693835735
0.84,437.2037092557357
0.85,441.3325266065535
0.86,445.29417142080035
0.87,449.0883912346103
0.88,452.7101879543143
0.89,456.15967651096776
0.9,459.4380247458804
0.91,462.5453807706958
0.92,465.48238265785096
0.93,468.2498407291327
0.94,470.8487077890662
0.95,473.28012171179745
0.96,475.54563042159265
0.97,477.6466031509962
0.98,479.58433535297144
0.99,481.360630482269
1.0,482.9774708382412
1.01,484.4368318951462
1.02,485.7409506508028
1.03,486.8926084055191
1.04,487.89505952299345
1.05,488.752138488897
1.06,489.46881540533974
1.07,490.0518126146747
1.08,490.51068719660395
1.09,490.8620411378888
1.1,491.14173860455975
1.11,491.376670410844
1.12,491.57872354352247
1.13,491.7483513733178
1.14,491.88646297297146
1.15,492.00165864078957
1.16,492.09601263633044
1.17,492.16952091441493
1.18,492.22272930661416
1.19,492.2624374074395
1.2,492.2906217595195
1.21,492.3073216793609
1.22,492.31272179866926
1.23,492.3124271857595
1.24,492.30921497978915
1.25,492.30308589811506
1.26,492.2948387214189
1.27,492.2850665412469
1.28,492.27378600999833
1.29,492.26116217495024
1.3,492.2473411829113
1.31,492.2323568319178
1.32,492.2163218720231
1.33,492.19940321396973
1.34,492.1815559984736
1.35,492.162800728843
1.36,492.14326996073345
1.37,492.12307325535323
1.38,492.10224691417545
1.39,492.0807967662223
1.4,492.05878936401825
1.41,492.0363067366941
1.42,492.0133489312557
1.43,491.98993783431985
1.44,491.9661341152787
1.45,491.9419825826631
1.46,491.91749849310946
1.47,491.8927170912717
1.48,491.86768216216933
1.49,491.8424669691831
1.5,491.8170849559545
1.51,491.79150202282096
1.52,491.76575112296615
1.53,491.7398575264391
1.54,491.7138930020671
1.55,491.6878782900728
1.56,491.66179962308775
1.57,491.6356909473314
1.58,491.60956064835045
1.59,491.5834736236656
1.6,491.55745089292736
1.61,491.53148117467066
1.62,491.5055569728005
1.63,491.47967951536987
1.64,491.453901312192
1.65,491.42822983787096
1.66,491.40267345466685
1.67,491.3771903053907
1.68,491.3517655145243
1.69,491.32636738957285
1.7,491.301041888772
1.71,491.2758197585439
1.72,491.2506353995892
1.73,491.2254176554315
1.74,491.2001715124159
1.75,491.17497279117754
1.76,491.1498425053828
1.77,491.12468322439594
1.78,491.0994598171324
1.79,491.0741735925462
1.8,491.04889036289336
1.81,491.02360816681283
1.82,490.9982687991514
1.83,490.9728356502901
1.84,490.9473138156481
1.85,490.9217163621757
1.86,490.89607698241
1.87,490.87033851861554
1.88,490.84447087710345
1.89,490.81847482795183
1.9,490.79234672697703
1.91,490.7661105724961
1.92,490.7397127319602
1.93,490.71314108867915
1.94,490.6863920244434
1.95,490.6594695448728
1.96,490.63231222367517
1.97,490.6049220325083
1.98,490.57730005472575
1.99,490.5494507357763
2.0,490.5213064316932
2.01,490.492791902846
2.02,490.4639552952433
2.03,490.43481816979124
2.04,490.405273634063
2.05,490.37525385789303
2.06,490.3447588639404
2.07,490.31377943894375
2.08,490.282199865082
2.09,490.249999888814
2.1,490.21714167385653
2.11,490.1833919323779
2.12,490.14876644511673
2.13,490.113184044178
2.14,490.07633765674353
2.15,490.03814792467296
2.16,489.99813270892173
2.17,489.95601994303865
2.18,489.9108583640997
2.19,489.8594811710465
2.2,489.7889859048708
2.21,489.6950781136633
2.22,489.562075713431
2.23,489.3849617007061
2.24,489.15274037535573
2.25,488.8576204354526
2.26,488.4938165624314
2.27,488.04925442218405
2.28,487.5209048528582
2.29,486.8939715466512
2.3,486.16466229844013
2.31,485.31523402396294
2.32,484.3403499415821
2.33,483.23460922891405
2.34,482.01177770797415
2.35,480.6851266585338
2.36,479.2626790678643
2.37,477.7516124171407
2.38,476.1568697028305
2.39,474.4819621016859
2.4,472.7313166528941
2.41,470.906698045566
2.42,469.01165271987804
2.43,467.0476377668193
2.44,465.0173221169586
2.45,462.9222245229273
2.46,460.7637315909165
2.47,458.54429215356157
2.48,456.2642037165077
2.49,453.9260298969179
2.5,451.5305149488092
2.51,449.0787743644909
2.52,446.5730695767786
2.53,444.0143123662518
2.54,441.40498623492516
2.55,438.7558154340733
2.56,436.0756712482198
2.57,433.3747037012111
2.58,430.66648199802347
2.59,427.95513901815343
2.6,425.2554806159321
2.61,422.5704622833623
2.62,419.9130525851347
2.63,417.28808712971784
2.64,414.7070744275503
2.65,412.17868609501386
2.66,409.71220856676814
2.67,407.3232638580002
2.68,405.01528088718084
2.69,402.7878006046485
2.7,400.6263379168374
2.71,398.5203294177466
2.72,396.46252781728157
2.73,394.4491970029533
2.74,392.4752787805339
2.75,390.5384708708604
2.76,388.63488720584235
2.77,386.7642424771111
2.78,384.9230365269965
2.79,383.11055780042466
2.8,381.32485876217817
2.81,379.56570482591883
2.82,377.8308568250631
2.83,376.1193481763506
2.84,374.4316667504717
2.85,372.7656329142759
2.86,371.12104572895896
2.87,369.49763667450947
2.88,367.8945068091297
2.89,366.31159278547534
2.9,364.7476023778846
2.91,363.2029871866426
2.92,361.6777491701812
2.93,360.17031381566073
2.94,358.6809947599848
2.95,357.2104534497791
2.96,355.7572325131812
2.97,354.32096511556387
2.98,352.9028428038861
2.99,351.5018984021749
3.0,350.11748498540436
3.01,348.7501609506695
3.02,347.40017788824554
3.03,346.0666052418684
3.04,344.74947680516414
3.05,343.4495973541806
3.06,342.1662470926577
3.07,340.8993208281861
3.08,339.6491474060873
3.09,338.41588610868354
3.1,337.19922476481116
3.11,335.99916853454926
3.12,334.8163238994198
3.13,333.65041113781496
3.14,332.50140218907404
3.15,331.3695330948144
3.16,330.25482757305673
3.17,329.1570512303739
3.18,328.0766620445125
3.19,327.0136708638699
3.2,325.9670813355027
3.21,324.93743013046776
3.22,323.92492728726904
3.23,322.9285452842462
3.24,321.9483787580122
3.25,320.98459537332076
3.26,320.0368979167993
3.27,319.1046142588804
3.28,318.1877992747644
3.29,317.2864561586178
3.3,316.4001542066979
3.31,315.52832443706666
3.32,314.67095825732025
3.33,313.82813238763345
3.34,312.9990130354499
3.35,312.1832761197856
3.36,311.3809534438971
3.37,310.5919557582932
3.38,309.81520770693163
3.39,309.0506563216749
3.4,308.2984605475105
3.41,307.5578210211806
3.42,306.82808031477776
3.43,306.10924950738377
3.44,305.4013607196519
3.45,304.7031573023272
3.46,304.01444437161496
3.47,303.3352688219975
3.48,302.66498977463476
3.49,302.00267894526036
3.5,301.348323374288
3.51,300.70181212364383
3.52,300.0622158190129
3.53,299.42934669150713
3.54,298.80288762493984
3.55,298.1822592596106
3.56,297.5676973029486
3.57,296.95876175822195
3.58,296.35504915693855
3.59,295.7566320198623
3.6,295.16329521088466
3.61,294.5747591392545
3.62,293.9910204287317
3.63,293.4117804970187
3.64,292.8370197131795
3.65,292.26676561525727
3.66,291.7007681674196
3.67,291.1386883522203
3.68,290.58081340992385
3.69,290.02711939445686
3.7,289.4771863842231
3.71,288.93096879918653
3.72,288.38866194436133
3.73,287.8501029180042
3.74,287.31511674116877
3.75,286.7837022137865
3.76,286.25587352599507
3.77,285.73148135275244
3.78,285.2105444074844
3.79,284.6930665914581
3.8,284.17887578592934
3.81,283.6679478631274
3.82,283.16034185723703
3.83,282.6560955449542
3.84,282.1549388410393
3.85,281.656890902346
3.86,281.16207990100133
3.87,280.6705064596959
3.88,280.18192954069985
3.89,279.69631161226835
3.9,279.2138576597303
3.91,278.7345677395423
3.92,278.25819416558795
3.93,277.7847049928577
3.94,277.3142564607172
3.95,276.84694350697663
3.96,276.3825180481411
3.97,275.920921403272
3.98,275.46222775853715
3.99,275.0066310547956
4.0,274.55392384184984
4.01,274.10396830077974
4.02,273.65677384852864
4.03,273.21250070360225
4.04,272.77112177447856
4.05,272.3324615307487
4.06,271.8964808194868
4.07,271.46321140192117
4.08,271.0327923563982
4.09,270.6050674911871
4.1,270.17999343257287
4.11,269.75754292128073
4.12,269.33778106908767
4.13,268.92069835627336
4.14,268.50625514478463
4.15,268.09441263457944
4.16,267.685154034064
4.17,267.27850513295203
4.18,266.8744633483712
4.19,266.473027099142
4.2,266.0741568433934
4.21,265.6778222668632
4.22,265.2840380111852
4.23,264.8928404410047
4.24,264.5042268052465
4.25,264.11815499708086
4.26,263.734558536635
4.27,263.35351678144895
4.28,262.97505243763294
4.29,262.599162437032
4.3,262.22577049897535
4.31,261.8548657882552
4.32,261.4865273336223
4.33,261.12076833663076
4.34,260.7575849903204
4.35,260.39686538858416
4.36,260.03868476309043
4.37,259.6830927577317
4.38,259.3300938074578
4.39,258.97965665015755
4.4,258.63173121270523
4.41,258.2863938335589
4.42,257.94371223985263
4.43,257.6037635594514
4.44,257.2664931954456
4.45,256.93192482886354
4.46,256.6001113955775
4.47,256.27106182712623
4.48,255.94476555171556
4.49,255.62119353013665
4.5,255.30041003034071
4.51,254.9824343517335
4.52,254.6672656817943
4.53,254.35488501616916
4.54,254.04534286994854
4.55,253.73867031039018
4.56,253.43486006872982
4.57,253.1339113466332
4.58,252.83586084612756
4.59,252.54078155219543
4.6,252.24864149421052
4.61,251.95943349141862
4.62,251.67320674527275
4.63,251.3900650117257
4.64,251.109984564575
4.65,250.83292663549042
4.66,250.5589176169826
4.67,250.2881713579164
4.68,250.0206102507278
4.69,249.75620805973904
4.7,249.49497596911397
4.71,249.2371284626907
4.72,248.98267728562882
4.73,248.73154392718732
4.74,248.48377553825966
4.75,248.2394760158328
4.76,247.99885589998232
4.77,247.76179119310623
4.78,247.52830961422134
4.79,247.2984400939162
4.8,247.07254108604585
4.81,246.8505621877997
4.82,246.63238122345876
4.83,246.41811286032126
4.84,246.20814876517915
4.85,246.0024904511075
4.86,245.80104516956837
4.87,245.6038801524893
4.88,245.41117291816624
4.89,245.2229849793998
4.9,245.03919855201818
4.91,244.8597514687782
4.92,244.68462863496833
4.93,244.51386201109312
4.94,244.3473969183493
4.95,244.1850393651968
4.96,244.02674000349418
4.97,243.87250273340416
4.98,243.72233786202224
4.99,243.57602000710597
5.0,243.43344416701623
5.01,243.29458145322087
5.02,243.1594593466035
5.03,243.0279141852414
5.04,242.89971170420375
5.05,242.7748549529188
5.06,242.6533446891351
5.07,242.53508496362716
5.08,242.4197548333858
5.09,242.30732911345802
5.1,242.19782491693203
5.11,242.09114495445445
5.12,241.9869416378775
5.13,241.88518847538342
5.14,241.78586702186624
5.15,241.68884486858107
5.16,241.59381505852815
5.17,241.50070493282803
5.18,241.4094092216158
5.19,241.31987866048615
5.2,241.23177086886417
5.21,241.14487633244158
5.22,241.05917874841
5.23,240.97459241783613
5.24,240.8907724376069
5.25,240.80764140024823
5.26,240.72513468123697
5.27,240.6432116979012
5.28,240.5618261708247
5.29,240.4809215433673
5.3,240.40049387147658
5.31,240.32051179413418
5.32,240.24095741101786
5.33,240.1618047708722
5.34,240.08304330701822
5.35,240.00465594487835
5.36,239.9266142058131
5.37,239.84892587540241
5.38,239.77157283766095
5.39,239.69454636966586
5.4,239.617836951702
5.41,239.54142488761187
5.42,239.46531530899065
5.43,239.3894982413955
5.44,239.31395874840567
5.45,239.23870089106273
5.46,239.16371523771778
5.47,239.0889920777282
5.48,239.01453297204986
5.49,238.94032586659364
5.5,238.8663708276175
5.51,238.79266819920173
5.52,238.71920483011704
5.53,238.64597203385603
5.54,238.57298540962444
5.55,238.50023789425694
5.56,238.427713498838
5.57,238.35541199456625
5.58,238.2833383738861
5.59,238.21148233112075
5.6,238.13985092271358
5.61,238.06844291298663
5.62,237.99724641595688
5.63,237.9262596941919
5.64,237.85548288469457
5.65,237.78491756881667
5.66,237.71456186614904
5.67,237.64441882295878
5.68,237.57448306759187
5.69,237.50474960563702
5.7,237.43520739253523
5.71,237.3658676425052
5.72,237.29674303005248
5.73,237.227826070833
5.74,237.15909971150424
5.75,237.09056234436508
5.76,237.02222316541014
5.77,236.95409014064265
5.78,236.88615722703008
5.79,236.81842320887569
5.8,236.7508797691515
5.81,236.6835259033762
5.82,236.61636871575405
5.83,236.5494118596808
5.84,236.48265522497914
5.85,236.41609364552517
5.86,236.34971714822922
5.87,236.28353431435684
5.88,236.21755258766672
5.89,236.15176888118796
5.9,236.08617690588235
5.91,236.02077967867504
5.92,235.95557502315356
5.93,235.89057168526287
5.94,235.82576113837447
5.95,235.76114406143986
5.96,235.69672615775838
5.97,235.6325082163533
5.98,235.56848833595572
5.99,235.50466150272607
6.0,235.441030407021
6.01,235.37760056740805
6.02,235.31437643459347
6.03,235.25135281576942
6.04,235.18852487841534
6.05,235.1258949511547
6.06,235.06346866916695
6.07,235.0012492950761
6.08,234.93923994810015
6.09,234.8774299473997
6.1,234.81582031801597
6.11,234.7544162690364
6.12,234.69322312262278
6.13,234.63224734566904
6.14,234.57147797501312
6.15,234.51091156919085
6.16,234.45055312337178
6.17,234.39041269853936
6.18,234.3304945499976
6.19,234.2707918980021
6.2,234.21129530425543
6.21,234.15201159712612
6.22,234.09295380822653
6.23,234.03412302240727
6.24,233.97551562487965
6.25,233.91711903729836
6.26,233.85894503259132
6.27,233.80100316301204
6.28,233.74329333902827
6.29,233.68581349005
6.3,233.62855407081977
6.31,233.5715274167961
6.32,233.51473799408404
6.33,233.45818595932292
6.34,233.40187006511758
6.35,233.3457921366711
6.36,233.28995304131823
6.37,233.2343557182254
6.38,233.17900140971838
6.39,233.12389649380555
6.4,233.0690442223996
6.41,233.0144361981045
6.42,232.96007363521045
6.43,232.90596315784606
6.44,232.85212287912503
6.45,232.79854113751685
6.46,232.74521038224842
6.47,232.6921295398493
6.48,232.63932377892445
6.49,232.58679680384265
6.5,232.5345331900134
6.51,232.48252813171715
6.52,232.43079436347517
6.53,232.3793489949825
6.54,232.32818513026763
6.55,232.2772899707758
6.56,232.2266761894896
6.57,232.17635337087688
6.58,232.12632264782113
6.59,232.07657351199896
6.6,232.02711428694369
6.61,231.97796051100423
6.62,231.92910613575305
6.63,231.88054518886176
6.64,231.83228169673674
6.65,231.78433266865733
6.66,231.73669780536736
6.67,231.6893714502842
6.68,231.64235473810982
6.69,231.59565506009895
6.7,231.5492776470665
6.71,231.5032234989114
6.72,231.45750565374777
6.73,231.41211182701488
6.74,231.3670411190633
6.75,231.3223019353606
6.76,231.27792093027543
6.77,231.23388334098155
6.78,231.19017767453943
6.79,231.14681130145462
6.8,231.10381201211644
6.81,231.06117205288615
6.82,231.01887932530033
6.83,230.97694635053253
6.84,230.93538972368302
6.85,230.89419973093214
6.86,230.85336518601824
6.87,230.81291565991395
6.88,230.7728573560141
6.89,230.73317832809866
6.9,230.69386738755279
6.91,230.65495133512735
6.92,230.61643745480475
6.93,230.57832154254703
6.94,230.54060086142937
6.95,230.50328419076033
6.96,230.46637148183342
6.97,230.42987150724844
6.98,230.39379357927783
6.99,230.35813382846112
7.0,230.32288805125165
7.01,230.2880779168306
7.02,230.25369363782366
7.03,230.21973832494078
7.04,230.1862247789516
7.05,230.15316852545425
7.06,230.12054488516753
7.07,230.0883548246461
7.08,230.05663272550333
7.09,230.02537993481727
7.1,229.99457102198394
7.11,229.9642227550052
7.12,229.9343556032682
7.13,229.9049519800277
7.14,229.8760044055355
7.15,229.84754335806673
7.16,229.8195639323157
7.17,229.79204333671635
7.18,229.76500361734537
7.19,229.73845080951193
7.2,229.7123797311951
7.21,229.6867884866009
7.22,229.66168383553202
7.23,229.6370649507577
7.24,229.61293438953686
7.25,229.58929532662532
7.26,229.56614739795532
7.27,229.54349522107256
7.28,229.52134002456174
7.29,229.4996727086461
7.3,229.4785000796783
7.31,229.45784511741664
7.32,229.43768316336343
7.33,229.4180100941688
7.34,229.39885690470683
7.35,229.38020439215842
7.36,229.36204238026795
7.37,229.3444025408208
7.38,229.32727928561377
7.39,229.31064102682944
7.4,229.29451534527945
7.41,229.27891635544282
7.42,229.26381379400925
7.43,229.24922178558765
7.44,229.23515417166792
7.45,229.22159118557957
7.46,229.20853105797215
7.47,229.19599770369553
7.48,229.18398301665067
7.49,229.17247279749452
7.5,229.16149011216814
7.51,229.1510334797632
7.52,229.1410885679161
7.53,229.1316718161131
7.54,229.12278397595566
7.55,229.1144182043824
7.56,229.10658107739422
7.57,229.09927340822134
7.58,229.0924960713597
7.59,229.08624805917265
7.6,229.08052908671218
7.61,229.07534517981395
7.62,229.07069273387918
7.63,229.06656758241772
7.64,229.06297172449078
7.65,229.0598839498621
7.66,229.05729372484882
7.67,229.0552006775743
7.68,229.05357713748066
7.69,229.05240560942158
7.7,229.0516615833925
7.71,229.05130321073233
7.72,229.05130613033435
7.73,229.05167035851852
7.74,229.05238008571985
7.75,229.05340600475085
7.76,229.05473654824905
7.77,229.0563246241674
7.78,229.05813547414562
7.79,229.06016745592444
7.8,229.06241157529524
7.81,229.0648341870797
7.82,229.06742806478368
7.83,229.0701503424663
7.84,229.07295834138088
7.85,229.07584719525713
7.86,229.07881175590367
7.87,229.08181802312617
7.88,229.08485793798096
7.89,229.08789289630852
7.9,229.09087627357707
7.91,229.09380047248283
7.92,229.09666236546562
7.93,229.0994292880737
7.94,229.10209011513749
7.95,229.10460552886065
7.96,229.10693159219244
7.97,229.10905855759466
7.98,229.11098445710414
7.99,229.1126785228387
8.0,229.11412211425244
8.01,229.11527433848016
8.02,229.11611885353997
8.03,229.1166516116045
8.04,229.11687270312572
8.05,229.11678212386312
8.06,229.11635125512834
8.07,229.11555967535512
8.08,229.11444047699004
8.09,229.11299700238493
8.1,229.11122932854576
8.11,229.10912229513494
8.12,229.10663128307343
8.13,229.10375469358638
8.14,229.10052564400812
8.15,229.09695849998985
8.16,229.09303772341588
8.17,229.0887129415814
8.18,229.0839801919722
8.19,229.07883931922387
8.2,229.07331364586452
8.21,229.06739387691704
8.22,229.06103573966055
8.23,229.05423892862453
8.24,229.0470032044504
8.25,229.03931538340336
8.26,229.03112324749105
8.27,229.02244837187624
8.28,229.01329111723274
8.29,229.0036373423107
8.3,228.99340268983778
8.31,228.98257269655414
8.32,228.97116728897032
8.33,228.9591678127683
8.34,228.94648286191648
8.35,228.93311104432047
8.36,228.91902099106986
8.37,228.90407200850316
8.38,228.88827870647734
8.39,228.87158568132153
8.4,228.85380982426022
8.41,228.8349101718895
8.42,228.8145780843169
8.43,228.79264091810825
8.44,228.76855574123547
8.45,228.74141732858223
8.46,228.71191492897486
8.47,228.6812322888673
8.48,228.6499410835753
8.49,228.61833896505507
8.5,228.58669375617907
8.51,228.55512270850656
8.52,228.52377283067594
